,CO2 (ppm),PM1 (ug/m3),PM2.5 (ug/m3),PM10 (ug/m3),Temperature (C),Humidity (%),Position,Floor No.,Weather,Occupancy_Classified
0,1701.0,44.0,65.0,70.0,26.1,14.1,3,2.0,4,2
1,1699.0,44.0,64.0,69.0,26.1,14.1,3,2.0,4,2
2,1695.0,44.0,64.0,69.0,26.1,14.1,3,2.0,4,2
3,1690.0,43.0,64.0,68.0,26.1,14.1,3,2.0,4,2
4,1684.0,43.0,64.0,67.0,26.1,14.0,3,2.0,4,2
5,1678.0,43.0,63.0,66.0,26.1,14.0,3,2.0,4,2
6,1672.0,44.0,64.0,67.0,26.1,14.1,3,2.0,4,2
7,1668.0,43.0,63.0,66.0,26.1,14.1,3,2.0,4,2
8,1667.0,44.0,63.0,66.0,26.1,14.0,3,2.0,4,2
9,1666.0,43.0,62.0,65.0,26.1,14.0,3,2.0,4,2
10,1666.0,43.0,62.0,65.0,26.1,14.1,3,2.0,4,2
11,1666.0,44.0,63.0,67.0,26.1,14.1,3,2.0,4,2
12,1667.0,44.0,62.0,66.0,26.1,14.1,3,2.0,4,2
13,1667.0,43.0,61.0,65.0,26.1,14.1,3,2.0,4,2
14,1671.0,44.0,62.0,66.0,26.1,14.1,3,2.0,4,2
15,1676.0,43.0,61.0,65.0,26.2,14.1,3,2.0,4,2
16,1683.0,43.0,62.0,66.0,26.2,14.1,3,2.0,4,2
17,1688.0,43.0,62.0,66.0,26.2,14.1,3,2.0,4,2
18,1692.0,42.0,60.0,64.0,26.2,14.1,3,2.0,4,2
19,1696.0,41.0,60.0,64.0,26.2,14.1,3,2.0,4,2
20,1699.0,41.0,60.0,64.0,26.2,14.1,3,2.0,4,2
21,1702.0,41.0,60.0,65.0,26.2,14.1,3,2.0,4,2
22,1704.0,41.0,61.0,65.0,26.2,14.1,3,2.0,4,2
23,1707.0,41.0,61.0,66.0,26.2,14.1,3,2.0,4,2
24,1710.0,41.0,62.0,67.0,26.2,14.1,3,2.0,4,2
25,1713.0,41.0,62.0,67.0,26.2,14.1,3,2.0,4,2
26,1716.0,41.0,62.0,68.0,26.2,14.1,3,2.0,4,2
27,1718.0,41.0,62.0,68.0,26.2,14.1,3,2.0,4,2
28,1721.0,41.0,63.0,67.0,26.2,14.1,3,2.0,4,2
29,1724.0,40.0,62.0,67.0,26.2,14.1,3,2.0,4,2
30,1726.0,40.0,62.0,66.0,26.2,14.1,3,2.0,4,2
31,1727.0,40.0,61.0,66.0,26.2,14.1,3,2.0,4,2
32,1728.0,40.0,61.0,66.0,26.2,14.1,3,2.0,4,2
33,1729.0,40.0,60.0,65.0,26.2,14.1,3,2.0,4,2
34,1729.0,40.0,60.0,65.0,26.2,14.1,3,2.0,4,2
35,1730.0,38.0,60.0,65.0,26.2,14.1,3,2.0,4,2
36,1730.0,38.0,60.0,65.0,26.2,14.1,3,2.0,4,2
37,1731.0,38.0,60.0,65.0,26.2,14.1,3,2.0,4,2
38,1731.0,38.0,61.0,65.0,26.2,14.1,3,2.0,4,2
39,1731.0,39.0,62.0,66.0,26.2,14.1,3,2.0,4,2
40,1731.0,38.0,62.0,65.0,26.2,14.1,3,2.0,4,2
41,1730.0,38.0,62.0,66.0,26.1,14.1,3,2.0,4,2
42,1729.0,38.0,62.0,66.0,26.1,14.1,3,2.0,4,2
43,1729.0,41.0,64.0,68.0,26.1,14.1,3,2.0,4,2
44,1729.0,41.0,63.0,68.0,26.1,14.0,3,2.0,4,2
45,1730.0,41.0,62.0,67.0,26.1,14.0,3,2.0,4,2
46,1731.0,42.0,63.0,68.0,26.1,14.0,3,2.0,4,2
47,1732.0,41.0,62.0,67.0,26.1,14.0,3,2.0,4,2
48,1733.0,42.0,62.0,68.0,26.1,14.0,3,2.0,4,2
49,1735.0,42.0,62.0,68.0,26.1,14.0,3,2.0,4,2
50,1737.0,41.0,62.0,68.0,26.1,14.0,3,2.0,4,2
51,1740.0,41.0,61.0,69.0,26.1,14.0,3,2.0,4,2
52,1742.0,40.0,60.0,68.0,26.1,14.0,3,2.0,4,2
53,1745.0,41.0,61.0,69.0,26.1,14.0,3,2.0,4,2
54,1748.0,41.0,61.0,69.0,26.1,14.0,3,2.0,4,2
55,1750.0,41.0,60.0,68.0,26.1,14.0,3,2.0,4,2
56,1753.0,42.0,61.0,68.0,26.1,14.0,3,2.0,4,2
57,1756.0,41.0,60.0,66.0,26.1,14.0,3,2.0,4,2
58,1758.0,41.0,60.0,66.0,26.1,14.0,3,2.0,4,2
59,1761.0,42.0,60.0,67.0,26.1,14.0,3,2.0,4,2
60,1763.0,41.0,59.0,66.0,26.1,14.0,3,2.0,4,2
61,1765.0,42.0,59.0,67.0,26.1,14.0,3,2.0,4,2
62,1767.0,42.0,59.0,67.0,26.1,14.1,3,2.0,4,2
63,1770.0,42.0,58.0,66.0,26.1,14.1,3,2.0,4,2
64,1772.0,42.0,58.0,66.0,26.1,14.1,3,2.0,4,2
65,1776.0,42.0,59.0,66.0,26.1,14.1,3,2.0,4,2
66,1779.0,42.0,59.0,66.0,26.1,14.1,3,2.0,4,2
67,1783.0,42.0,60.0,67.0,26.2,14.1,3,2.0,4,2
68,1786.0,41.0,60.0,67.0,26.2,14.1,3,2.0,4,2
69,1789.0,41.0,60.0,67.0,26.2,14.1,3,2.0,4,2
70,1792.0,43.0,61.0,68.0,26.2,14.1,3,2.0,4,2
71,1795.0,43.0,62.0,68.0,26.2,14.1,3,2.0,4,2
72,1797.0,43.0,62.0,68.0,26.2,14.1,3,2.0,4,2
73,1799.0,43.0,62.0,67.0,26.2,14.1,3,2.0,4,2
74,1800.0,43.0,61.0,66.0,26.2,14.1,3,2.0,4,2
75,1800.0,43.0,61.0,66.0,26.2,14.1,3,2.0,4,2
76,1800.0,43.0,61.0,65.0,26.2,14.1,3,2.0,4,2
77,1800.0,43.0,61.0,65.0,26.2,14.1,3,2.0,4,2
78,1800.0,44.0,62.0,66.0,26.2,14.1,3,2.0,4,2
79,1799.0,44.0,61.0,67.0,26.2,14.1,3,2.0,4,2
80,1797.0,44.0,62.0,67.0,26.2,14.0,3,2.0,4,2
81,1797.0,43.0,61.0,66.0,26.1,14.1,3,2.0,4,2
82,1797.0,44.0,62.0,67.0,26.1,14.0,3,2.0,4,2
83,1796.0,44.0,62.0,68.0,26.1,14.0,3,2.0,4,2
84,1796.0,42.0,61.0,66.0,26.1,14.0,3,2.0,4,2
85,1794.0,43.0,62.0,67.0,26.0,14.0,3,2.0,4,2
86,1793.0,43.0,62.0,67.0,26.1,14.0,3,2.0,4,2
87,1791.0,42.0,61.0,66.0,26.0,14.0,3,2.0,4,2
88,1790.0,42.0,61.0,66.0,26.1,14.0,3,2.0,4,2
89,1791.0,41.0,61.0,65.0,26.0,14.0,3,2.0,4,2
90,1792.0,40.0,60.0,64.0,26.0,14.0,3,2.0,4,2
91,1793.0,40.0,60.0,64.0,26.0,14.0,3,2.0,4,2
92,1793.0,40.0,60.0,64.0,26.0,13.9,3,2.0,4,2
93,1793.0,41.0,61.0,65.0,26.0,13.9,3,2.0,4,2
94,1793.0,40.0,60.0,65.0,25.9,13.9,3,2.0,4,2
95,1792.0,40.0,60.0,65.0,25.9,13.9,3,2.0,4,2
96,1791.0,41.0,61.0,66.0,26.0,13.9,3,2.0,4,2
97,1792.0,41.0,61.0,66.0,26.0,13.9,3,2.0,4,2
98,1792.0,40.0,60.0,65.0,25.9,13.9,3,2.0,4,2
99,1793.0,41.0,60.0,65.0,25.9,13.9,3,2.0,4,2
100,1795.0,41.0,59.0,65.0,25.9,13.9,3,2.0,4,2
101,1795.0,41.0,59.0,65.0,25.9,13.9,3,2.0,4,2
102,1795.0,41.0,59.0,64.0,25.9,13.9,3,2.0,4,2
103,1796.0,41.0,58.0,64.0,25.9,13.9,3,2.0,4,2
104,1796.0,41.0,58.0,63.0,25.9,13.9,3,2.0,4,2
105,1796.0,41.0,58.0,63.0,25.9,13.9,3,2.0,4,2
106,1797.0,41.0,58.0,63.0,25.9,13.9,3,2.0,4,2
107,1798.0,41.0,58.0,62.0,25.9,13.9,3,2.0,4,2
108,1799.0,41.0,59.0,62.0,26.0,13.9,3,2.0,4,2
109,1799.0,41.0,59.0,62.0,26.0,13.9,3,2.0,4,2
110,1801.0,41.0,59.0,61.0,25.9,13.9,3,2.0,4,2
111,1802.0,41.0,59.0,61.0,26.0,13.9,3,2.0,4,2
112,1804.0,41.0,59.0,61.0,25.9,13.9,3,2.0,4,2
113,1805.0,41.0,59.0,60.0,25.9,13.9,3,2.0,4,2
114,1806.0,41.0,58.0,60.0,26.0,13.9,3,2.0,4,2
115,1809.0,40.0,58.0,60.0,26.0,13.9,3,2.0,4,2
116,1811.0,40.0,57.0,60.0,26.0,13.9,3,2.0,4,2
117,1813.0,40.0,57.0,60.0,26.0,13.9,3,2.0,4,2
118,1814.0,40.0,57.0,60.0,25.9,13.9,3,2.0,4,2
119,1815.0,40.0,57.0,60.0,26.0,13.9,3,2.0,4,2
120,1816.0,40.0,57.0,60.0,25.9,13.9,3,2.0,4,2
121,1817.0,40.0,58.0,60.0,25.9,13.9,3,2.0,4,2
122,1817.0,40.0,58.0,60.0,25.9,13.9,3,2.0,4,2
123,1817.0,40.0,58.0,60.0,25.9,13.9,3,2.0,4,2
124,1817.0,40.0,58.0,60.0,25.9,13.9,3,2.0,4,2
125,1817.0,40.0,58.0,60.0,25.9,13.9,3,2.0,4,2
126,1817.0,40.0,59.0,61.0,25.9,13.9,3,2.0,4,2
127,1817.0,41.0,59.0,61.0,25.9,13.9,3,2.0,4,2
128,1816.0,41.0,60.0,61.0,25.9,13.9,3,2.0,4,2
129,1815.0,41.0,60.0,61.0,25.9,13.9,3,2.0,4,2
130,1813.0,41.0,60.0,62.0,25.9,13.9,3,2.0,4,2
131,1813.0,42.0,60.0,62.0,25.9,13.9,3,2.0,4,2
132,1812.0,43.0,61.0,63.0,25.9,13.9,3,2.0,4,2
133,1812.0,42.0,60.0,62.0,25.9,13.9,3,2.0,4,2
134,1811.0,42.0,60.0,61.0,25.9,13.9,3,2.0,4,2
135,1811.0,43.0,61.0,61.0,25.8,13.9,3,2.0,4,2
136,1811.0,43.0,60.0,61.0,25.8,13.9,3,2.0,4,2
137,1810.0,41.0,59.0,60.0,25.8,13.9,3,2.0,4,2
138,1810.0,41.0,59.0,60.0,25.8,13.9,3,2.0,4,2
139,1809.0,41.0,59.0,60.0,25.8,13.9,3,2.0,4,2
140,1809.0,40.0,59.0,60.0,25.8,13.9,3,2.0,4,2
141,1809.0,40.0,59.0,60.0,25.8,13.9,3,2.0,4,2
142,1809.0,40.0,58.0,60.0,25.8,13.9,3,2.0,4,2
143,1810.0,40.0,58.0,60.0,25.8,13.9,3,2.0,4,2
144,1810.0,40.0,58.0,60.0,25.8,13.9,3,2.0,4,2
145,1810.0,40.0,58.0,60.0,25.7,13.9,3,2.0,4,2
146,1810.0,40.0,59.0,60.0,25.8,13.9,3,2.0,4,2
147,1810.0,40.0,59.0,60.0,25.7,13.9,3,2.0,4,2
148,1811.0,40.0,59.0,60.0,25.8,13.9,3,2.0,4,2
149,1811.0,41.0,60.0,60.0,25.7,13.8,3,2.0,4,2
150,1811.0,41.0,60.0,61.0,25.7,13.9,3,2.0,4,2
151,1811.0,41.0,60.0,62.0,25.8,13.9,3,2.0,4,2
152,1811.0,40.0,59.0,62.0,25.7,13.9,3,2.0,4,2
153,1811.0,40.0,59.0,63.0,25.8,13.9,3,2.0,4,2
154,1809.0,40.0,59.0,63.0,25.8,13.9,3,2.0,4,2
155,1808.0,40.0,59.0,63.0,25.7,13.9,3,2.0,4,2
156,1806.0,40.0,58.0,63.0,25.7,13.9,3,2.0,4,2
157,1805.0,40.0,58.0,63.0,25.7,13.9,3,2.0,4,2
158,1805.0,40.0,58.0,63.0,25.7,13.8,3,2.0,4,2
159,1805.0,40.0,58.0,62.0,25.7,13.9,3,2.0,4,2
160,1805.0,40.0,59.0,63.0,25.7,13.8,3,2.0,4,2
161,1806.0,40.0,59.0,63.0,25.7,13.8,3,2.0,4,2
162,1806.0,40.0,59.0,63.0,25.7,13.8,3,2.0,4,2
163,1805.0,40.0,59.0,63.0,25.7,13.8,3,2.0,4,2
164,1805.0,40.0,59.0,64.0,25.7,13.9,3,2.0,4,2
165,1806.0,40.0,59.0,64.0,25.7,13.8,3,2.0,4,2
166,1807.0,40.0,59.0,63.0,25.7,13.9,3,2.0,4,2
167,1808.0,40.0,59.0,63.0,25.7,13.9,3,2.0,4,2
168,1809.0,40.0,59.0,63.0,25.7,13.9,3,2.0,4,2
169,1810.0,40.0,59.0,62.0,25.7,13.9,3,2.0,4,2
170,1812.0,40.0,59.0,62.0,25.8,13.9,3,2.0,4,2
171,1814.0,40.0,59.0,62.0,25.8,13.9,3,2.0,4,2
172,1816.0,42.0,60.0,63.0,25.8,13.9,3,2.0,4,2
173,1818.0,42.0,60.0,63.0,25.8,13.9,3,2.0,4,2
174,1820.0,41.0,59.0,62.0,25.8,13.9,3,2.0,4,2
175,1822.0,41.0,59.0,62.0,25.8,13.9,3,2.0,4,2
176,1823.0,41.0,59.0,62.0,25.8,13.9,3,2.0,4,2
177,1824.0,41.0,59.0,62.0,25.8,13.9,3,2.0,4,2
178,1825.0,41.0,59.0,62.0,25.8,13.9,3,2.0,4,2
179,1826.0,42.0,61.0,63.0,25.8,13.9,3,2.0,4,2
180,1827.0,41.0,60.0,62.0,25.8,13.9,3,2.0,4,2
181,1828.0,41.0,60.0,62.0,25.8,13.9,3,2.0,4,2
182,1829.0,41.0,60.0,62.0,25.8,13.9,3,2.0,4,2
183,1829.0,41.0,60.0,62.0,25.8,13.9,3,2.0,4,2
184,1830.0,41.0,60.0,62.0,25.8,13.9,3,2.0,4,2
185,1831.0,41.0,59.0,62.0,25.9,13.9,3,2.0,4,2
186,1832.0,40.0,58.0,61.0,25.9,13.9,3,2.0,4,2
187,1833.0,41.0,59.0,62.0,25.9,13.9,3,2.0,4,2
188,1834.0,41.0,59.0,62.0,25.9,13.9,3,2.0,4,2
189,1834.0,40.0,58.0,61.0,25.9,13.9,3,2.0,4,2
190,1836.0,39.0,59.0,61.0,25.9,14.0,3,2.0,4,2
191,1839.0,39.0,58.0,61.0,26.0,13.9,3,2.0,4,2
192,1842.0,39.0,58.0,61.0,26.0,13.9,3,2.0,4,2
193,1844.0,38.0,58.0,61.0,26.0,13.9,3,2.0,4,2
194,1847.0,38.0,58.0,61.0,26.0,14.0,3,2.0,4,2
195,1850.0,38.0,58.0,61.0,26.0,14.0,3,2.0,4,2
196,1852.0,38.0,58.0,61.0,26.0,14.0,3,2.0,4,2
197,1854.0,38.0,58.0,61.0,26.0,13.9,3,2.0,4,2
198,1854.0,37.0,58.0,61.0,26.0,13.9,3,2.0,4,2
199,1855.0,38.0,59.0,63.0,26.0,13.9,3,2.0,4,2
200,1855.0,38.0,60.0,64.0,26.0,13.9,3,2.0,4,2
201,1855.0,38.0,60.0,63.0,26.0,13.9,3,2.0,4,2
202,1854.0,38.0,60.0,64.0,26.0,13.9,3,2.0,4,2
203,1855.0,39.0,61.0,65.0,26.0,13.9,3,2.0,4,2
204,1855.0,40.0,59.0,64.0,26.0,13.9,3,2.0,4,2
205,1855.0,41.0,60.0,64.0,26.0,14.0,3,2.0,4,2
206,1856.0,38.0,59.0,63.0,26.0,14.0,3,2.0,4,2
207,1857.0,39.0,60.0,63.0,26.0,14.0,3,2.0,4,2
208,1858.0,38.0,59.0,62.0,26.0,14.0,3,2.0,4,2
209,1859.0,38.0,59.0,62.0,26.1,14.0,3,2.0,4,2
210,1861.0,39.0,60.0,63.0,26.1,14.1,3,2.0,4,2
211,1864.0,39.0,60.0,63.0,26.1,14.1,3,2.0,4,2
212,1868.0,39.0,59.0,64.0,26.1,14.1,3,2.0,4,2
213,1873.0,38.0,58.0,63.0,26.2,14.1,3,2.0,4,2
214,1877.0,40.0,58.0,63.0,26.2,14.1,3,2.0,4,2
215,1882.0,40.0,57.0,63.0,26.2,14.1,3,2.0,4,2
216,1885.0,38.0,57.0,63.0,26.2,14.1,3,2.0,4,2
217,1889.0,38.0,57.0,63.0,26.2,14.1,3,2.0,4,2
218,1891.0,39.0,58.0,64.0,26.2,14.1,3,2.0,4,2
219,1894.0,38.0,57.0,63.0,26.3,14.1,3,2.0,4,2
220,1896.0,38.0,57.0,62.0,26.3,14.1,3,2.0,4,2
221,1898.0,38.0,57.0,62.0,26.3,14.1,3,2.0,4,2
222,1899.0,39.0,58.0,63.0,26.2,14.1,3,2.0,4,2
223,1899.0,37.0,57.0,62.0,26.2,14.1,3,2.0,4,2
224,1899.0,37.0,57.0,62.0,26.2,14.1,3,2.0,4,2
225,1899.0,38.0,58.0,63.0,26.2,14.1,3,2.0,4,2
226,1899.0,37.0,57.0,62.0,26.2,14.1,3,2.0,4,2
227,1899.0,38.0,58.0,63.0,26.2,14.1,3,2.0,4,2
228,1899.0,38.0,58.0,64.0,26.2,14.1,3,2.0,4,2
229,1897.0,38.0,58.0,64.0,26.2,14.1,3,2.0,4,2
230,1895.0,38.0,58.0,65.0,26.1,14.1,3,2.0,4,2
231,1892.0,38.0,58.0,66.0,26.2,14.1,3,2.0,4,2
232,1888.0,38.0,58.0,66.0,26.2,14.0,3,2.0,4,2
233,1884.0,38.0,59.0,66.0,26.1,14.0,3,2.0,4,2
234,1881.0,39.0,59.0,66.0,26.1,14.0,3,2.0,4,2
235,1878.0,37.0,57.0,64.0,26.1,14.0,3,2.0,4,2
236,1875.0,37.0,57.0,63.0,26.1,14.0,3,2.0,4,2
237,1873.0,37.0,56.0,62.0,26.0,14.0,3,2.0,4,2
238,1871.0,37.0,56.0,62.0,26.0,14.0,3,2.0,4,2
239,1871.0,37.0,56.0,62.0,26.1,14.0,3,2.0,4,2
240,1871.0,37.0,56.0,61.0,26.0,14.0,3,2.0,4,2
241,1871.0,37.0,56.0,61.0,26.0,14.0,3,2.0,4,2
242,1871.0,37.0,56.0,60.0,26.0,14.0,3,2.0,4,2
243,1870.0,37.0,56.0,60.0,26.0,13.9,3,2.0,4,2
244,1870.0,37.0,56.0,60.0,26.0,14.0,3,2.0,4,2
245,1870.0,38.0,56.0,60.0,26.0,13.9,3,2.0,4,2
246,1870.0,38.0,56.0,60.0,25.9,13.9,3,2.0,4,2
247,1871.0,39.0,57.0,61.0,26.0,13.9,3,2.0,4,2
248,1871.0,39.0,58.0,61.0,25.9,13.9,3,2.0,4,2
249,1872.0,41.0,59.0,61.0,25.9,13.9,3,2.0,4,2
250,1873.0,40.0,59.0,61.0,25.9,13.9,3,2.0,4,2
251,1873.0,41.0,60.0,62.0,25.9,13.9,3,2.0,4,2
252,1874.0,40.0,60.0,62.0,25.9,13.9,3,2.0,4,2
253,1875.0,40.0,60.0,63.0,25.9,13.9,3,2.0,4,2
254,1874.0,42.0,61.0,64.0,25.8,13.9,3,2.0,4,2
255,1874.0,41.0,61.0,63.0,25.8,13.9,3,2.0,4,2
256,1874.0,40.0,60.0,62.0,25.8,13.9,3,2.0,4,2
257,1875.0,40.0,60.0,62.0,25.8,13.9,3,2.0,4,2
258,1876.0,41.0,60.0,62.0,25.8,13.9,3,2.0,4,2
259,1876.0,41.0,60.0,62.0,25.8,13.9,3,2.0,4,2
260,1877.0,41.0,59.0,62.0,25.8,13.9,3,2.0,4,2
261,1878.0,41.0,59.0,62.0,25.8,13.9,3,2.0,4,2
262,1880.0,41.0,59.0,62.0,25.8,13.9,3,2.0,4,2
263,1883.0,41.0,59.0,62.0,25.8,13.9,3,2.0,4,2
264,1886.0,41.0,59.0,62.0,25.8,13.9,3,2.0,4,2
265,1890.0,40.0,58.0,62.0,25.8,13.9,3,2.0,4,2
266,1894.0,39.0,59.0,63.0,25.8,13.9,3,2.0,4,2
267,1898.0,39.0,59.0,63.0,25.9,13.9,3,2.0,4,2
268,1901.0,39.0,59.0,62.0,25.9,13.9,3,2.0,4,2
269,1905.0,39.0,59.0,62.0,25.9,13.9,3,2.0,4,2
270,1909.0,38.0,59.0,61.0,25.9,13.9,3,2.0,4,2
271,1912.0,38.0,58.0,61.0,25.9,13.9,3,2.0,4,2
272,1916.0,37.0,56.0,60.0,26.0,13.9,3,2.0,4,2
273,1920.0,37.0,56.0,60.0,26.0,13.9,3,2.0,4,2
274,1924.0,38.0,56.0,60.0,26.0,13.9,3,2.0,4,2
275,1928.0,37.0,56.0,60.0,26.0,13.9,3,2.0,4,2
276,1932.0,37.0,56.0,60.0,26.0,13.9,3,2.0,4,2
277,1933.0,37.0,56.0,60.0,26.0,13.9,3,2.0,4,2
278,1934.0,36.0,56.0,61.0,26.0,13.9,3,2.0,4,2
279,1934.0,36.0,56.0,61.0,26.0,13.9,3,2.0,4,2
280,1934.0,36.0,56.0,61.0,25.9,13.9,3,2.0,4,2
281,1934.0,37.0,57.0,63.0,25.9,13.9,3,2.0,4,2
282,1931.0,37.0,58.0,63.0,25.9,13.9,3,2.0,4,2
283,1929.0,36.0,57.0,63.0,26.0,13.9,3,2.0,4,2
284,1927.0,37.0,58.0,65.0,25.9,13.9,3,2.0,4,2
285,1924.0,36.0,57.0,64.0,25.9,13.9,3,2.0,4,2
286,1920.0,37.0,58.0,65.0,25.9,13.9,3,2.0,4,2
287,1917.0,38.0,58.0,64.0,25.9,13.9,3,2.0,4,2
288,1914.0,38.0,58.0,64.0,25.8,13.9,3,2.0,4,2
289,1912.0,37.0,57.0,62.0,25.9,13.9,3,2.0,4,2
290,1911.0,37.0,58.0,62.0,25.8,13.9,3,2.0,4,2
291,1910.0,37.0,58.0,61.0,25.8,13.9,3,2.0,4,2
292,1908.0,36.0,57.0,60.0,25.8,13.9,3,2.0,4,2
293,1907.0,37.0,58.0,61.0,25.8,13.9,3,2.0,4,2
294,1920.0,36.0,57.0,60.0,25.9,13.9,3,2.0,4,2
295,2050.0,37.0,58.0,61.0,25.9,13.9,3,2.0,4,2
296,2122.0,36.0,58.0,61.0,25.9,13.9,3,2.0,4,1
297,2161.0,36.0,58.0,61.0,25.8,13.9,3,2.0,4,1
298,2166.0,38.0,59.0,62.0,25.8,13.9,3,2.0,4,1
299,2166.0,38.0,59.0,62.0,25.8,13.9,3,2.0,4,1
300,2166.0,37.0,58.0,61.0,25.8,13.9,3,2.0,4,1
301,2146.0,38.0,58.0,61.0,25.8,13.9,3,2.0,4,1
302,2102.0,37.0,57.0,60.0,25.8,13.9,3,2.0,4,1
303,2067.0,37.0,56.0,59.0,25.8,13.9,3,2.0,4,1
304,2044.0,37.0,56.0,58.0,25.7,13.9,3,2.0,4,1
305,2024.0,37.0,55.0,58.0,25.7,13.8,3,2.0,4,1
306,2012.0,37.0,55.0,57.0,25.7,13.9,3,2.0,4,1
307,2000.0,37.0,55.0,56.0,25.7,13.8,3,2.0,4,1
308,1985.0,37.0,56.0,57.0,25.7,13.8,3,2.0,4,1
309,1972.0,37.0,56.0,57.0,25.7,13.8,3,2.0,4,1
310,1956.0,37.0,55.0,57.0,25.7,13.9,3,2.0,4,1
311,1942.0,37.0,55.0,58.0,25.7,13.8,3,2.0,4,1
312,1927.0,37.0,55.0,59.0,25.7,13.9,3,2.0,4,1
313,1917.0,37.0,55.0,59.0,25.7,13.9,3,2.0,4,0
314,1905.0,37.0,55.0,59.0,25.7,13.9,3,2.0,4,0
315,1897.0,37.0,55.0,60.0,25.7,13.8,3,2.0,4,0
316,1889.0,37.0,56.0,60.0,25.7,13.8,3,2.0,4,0
317,1883.0,37.0,57.0,60.0,25.7,13.8,3,2.0,4,0
318,1874.0,37.0,57.0,61.0,25.7,13.8,3,2.0,4,0
319,1865.0,38.0,57.0,61.0,25.7,13.9,3,2.0,4,0
320,1854.0,38.0,57.0,61.0,25.7,13.8,3,2.0,4,0
321,1841.0,38.0,57.0,60.0,25.7,13.8,3,2.0,4,0
322,1828.0,38.0,57.0,60.0,25.7,13.8,3,2.0,4,0
323,1812.0,38.0,57.0,60.0,25.7,13.8,3,2.0,4,0
324,1801.0,38.0,57.0,60.0,25.7,13.8,3,2.0,4,0
325,1790.0,38.0,58.0,60.0,25.7,13.8,3,2.0,4,0
326,1782.0,38.0,58.0,61.0,25.7,13.8,3,2.0,4,0
327,1775.0,38.0,59.0,61.0,25.7,13.8,3,2.0,4,0
328,1770.0,38.0,59.0,62.0,25.7,13.8,3,2.0,4,0
329,1764.0,38.0,59.0,62.0,25.7,13.8,3,2.0,4,0
330,1759.0,38.0,58.0,62.0,25.7,13.8,3,2.0,4,0
331,1753.0,38.0,58.0,62.0,25.6,13.8,3,2.0,4,0
332,1749.0,37.0,57.0,61.0,25.7,13.8,3,2.0,4,0
333,1745.0,37.0,57.0,60.0,25.6,13.8,3,2.0,4,0
334,1741.0,36.0,56.0,60.0,25.6,13.8,3,2.0,4,0
335,1738.0,36.0,56.0,60.0,25.6,13.8,3,2.0,4,0
336,1735.0,36.0,56.0,60.0,25.6,13.8,3,2.0,4,0
337,1732.0,36.0,56.0,60.0,25.6,13.8,3,2.0,4,0
338,1728.0,36.0,56.0,60.0,25.6,13.8,3,2.0,4,0
339,1724.0,36.0,56.0,60.0,25.6,13.8,3,2.0,4,0
340,1720.0,37.0,56.0,61.0,25.6,13.8,3,2.0,4,0
341,1718.0,37.0,56.0,60.0,25.6,13.8,3,2.0,4,0
342,1716.0,37.0,56.0,60.0,25.6,13.8,3,2.0,4,0
343,1714.0,38.0,56.0,61.0,25.6,13.8,3,2.0,4,0
344,1712.0,37.0,55.0,60.0,25.6,13.8,3,2.0,4,0
345,1710.0,37.0,55.0,60.0,25.6,13.8,3,2.0,4,0
346,1707.0,37.0,55.0,60.0,25.6,13.8,3,2.0,4,0
347,1705.0,37.0,55.0,60.0,25.6,13.8,3,2.0,4,0
348,1702.0,37.0,55.0,60.0,25.6,13.8,3,2.0,4,0
349,1699.0,37.0,56.0,60.0,25.6,13.8,3,2.0,4,0
350,1697.0,37.0,56.0,60.0,25.5,13.8,3,2.0,4,0
351,1695.0,37.0,56.0,60.0,25.5,13.8,3,2.0,4,0
352,1692.0,37.0,57.0,60.0,25.5,13.8,3,2.0,4,0
353,1688.0,38.0,57.0,60.0,25.5,13.8,3,2.0,4,0
354,1685.0,38.0,57.0,61.0,25.5,13.8,3,2.0,4,0
355,1682.0,38.0,57.0,61.0,25.5,13.7,3,2.0,4,0
356,1680.0,38.0,57.0,61.0,25.5,13.7,3,2.0,4,0
357,1677.0,38.0,57.0,61.0,25.4,13.7,3,2.0,4,0
358,1675.0,38.0,57.0,60.0,25.4,13.7,3,2.0,4,0
359,1671.0,38.0,57.0,60.0,25.4,13.7,3,2.0,4,0
360,1668.0,37.0,56.0,60.0,25.4,13.7,3,2.0,4,0
361,1666.0,37.0,56.0,60.0,25.4,13.6,3,2.0,4,0
362,1662.0,37.0,57.0,60.0,25.3,13.6,3,2.0,4,0
363,1657.0,39.0,59.0,61.0,25.3,13.6,3,2.0,4,0
364,1651.0,38.0,58.0,60.0,25.3,13.6,3,2.0,4,0
365,1645.0,39.0,60.0,61.0,25.3,13.6,3,2.0,4,0
366,1637.0,38.0,59.0,60.0,25.3,13.6,3,2.0,4,0
367,1630.0,38.0,59.0,60.0,25.3,13.6,3,2.0,4,0
368,1623.0,38.0,59.0,60.0,25.3,13.6,3,2.0,4,0
369,1617.0,38.0,59.0,60.0,25.2,13.6,3,2.0,4,0
370,1611.0,38.0,59.0,60.0,25.3,13.6,3,2.0,4,0
371,1606.0,38.0,60.0,60.0,25.2,13.6,3,2.0,4,0
372,1602.0,38.0,60.0,60.0,25.2,13.6,3,2.0,4,0
373,1598.0,38.0,60.0,60.0,25.2,13.6,3,2.0,4,0
374,1595.0,38.0,60.0,60.0,25.2,13.6,3,2.0,4,0
375,1591.0,38.0,60.0,61.0,25.2,13.6,3,2.0,4,0
376,1589.0,38.0,59.0,61.0,25.2,13.6,3,2.0,4,0
377,1587.0,38.0,59.0,62.0,25.2,13.6,3,2.0,4,0
378,1585.0,38.0,59.0,62.0,25.2,13.6,3,2.0,4,0
379,1585.0,38.0,59.0,62.0,25.2,13.6,3,2.0,4,0
380,1584.0,38.0,59.0,62.0,25.2,13.6,3,2.0,4,0
381,1583.0,38.0,59.0,62.0,25.2,13.6,3,2.0,4,0
382,1583.0,38.0,59.0,61.0,25.2,13.6,3,2.0,4,0
383,1582.0,38.0,59.0,61.0,25.1,13.6,3,2.0,4,0
384,1581.0,38.0,58.0,60.0,25.1,13.5,3,2.0,4,0
385,1579.0,38.0,58.0,60.0,25.1,13.5,3,2.0,4,0
386,1576.0,38.0,58.0,60.0,25.1,13.5,3,2.0,4,0
387,1574.0,38.0,57.0,60.0,25.1,13.5,3,2.0,4,0
388,1571.0,38.0,57.0,60.0,25.0,13.5,3,2.0,4,0
389,1569.0,39.0,58.0,61.0,25.0,13.5,3,2.0,4,0
390,1564.0,38.0,58.0,62.0,25.0,13.5,3,2.0,4,0
391,1560.0,38.0,57.0,62.0,25.0,13.5,3,2.0,4,0
392,1554.0,38.0,57.0,61.0,25.0,13.5,3,2.0,4,0
393,1549.0,37.0,56.0,60.0,25.0,13.5,3,2.0,4,0
394,1544.0,37.0,57.0,60.0,25.0,13.5,3,2.0,4,0
395,1541.0,37.0,57.0,61.0,25.0,13.5,3,2.0,4,0
396,1537.0,37.0,58.0,61.0,25.0,13.5,3,2.0,4,0
397,1534.0,39.0,59.0,62.0,25.0,13.5,3,2.0,4,0
398,1531.0,38.0,58.0,61.0,25.0,13.4,3,2.0,4,0
399,1528.0,39.0,58.0,62.0,24.9,13.4,3,2.0,4,0
400,1526.0,38.0,56.0,61.0,25.0,13.4,3,2.0,4,0
401,1523.0,38.0,56.0,61.0,24.9,13.4,3,2.0,4,0
402,1521.0,38.0,55.0,61.0,24.9,13.4,3,2.0,4,0
403,1519.0,39.0,56.0,63.0,24.9,13.4,3,2.0,4,0
404,1518.0,39.0,56.0,63.0,24.9,13.4,3,2.0,4,0
405,1515.0,39.0,57.0,65.0,24.9,13.4,3,2.0,4,0
406,1512.0,39.0,57.0,65.0,24.9,13.4,3,2.0,4,0
407,1509.0,39.0,58.0,66.0,24.9,13.4,3,2.0,4,0
408,1507.0,39.0,59.0,67.0,24.8,13.4,3,2.0,4,0
409,1504.0,39.0,59.0,68.0,24.8,13.4,3,2.0,4,0
410,1501.0,41.0,60.0,68.0,24.8,13.4,3,2.0,4,0
411,1499.0,41.0,61.0,68.0,24.8,13.4,3,2.0,4,0
412,1498.0,41.0,61.0,68.0,24.8,13.4,3,2.0,4,0
413,1495.0,40.0,60.0,67.0,24.8,13.4,3,2.0,4,0
414,1493.0,40.0,60.0,66.0,24.8,13.4,3,2.0,4,0
415,1491.0,41.0,61.0,67.0,24.8,13.4,3,2.0,4,0
416,1490.0,40.0,60.0,66.0,24.8,13.4,3,2.0,4,0
417,1488.0,41.0,60.0,66.0,24.8,13.4,3,2.0,4,0
418,1487.0,41.0,61.0,66.0,24.8,13.4,3,2.0,4,0
419,1486.0,40.0,60.0,64.0,24.8,13.4,3,2.0,4,0
420,1485.0,40.0,60.0,63.0,24.8,13.4,3,2.0,4,0
421,1484.0,40.0,59.0,62.0,24.8,13.4,3,2.0,4,0
422,1483.0,40.0,58.0,61.0,24.8,13.4,3,2.0,4,0
423,1482.0,41.0,59.0,61.0,24.8,13.4,3,2.0,4,0
424,1481.0,40.0,57.0,60.0,24.8,13.4,3,2.0,4,0
425,1480.0,40.0,57.0,60.0,24.8,13.4,3,2.0,4,0
426,1479.0,40.0,57.0,60.0,24.7,13.3,3,2.0,4,0
427,1478.0,40.0,57.0,60.0,24.7,13.3,3,2.0,4,0
428,1476.0,40.0,57.0,60.0,24.7,13.3,3,2.0,4,0
429,1474.0,40.0,57.0,60.0,24.7,13.3,3,2.0,4,0
430,1472.0,41.0,57.0,61.0,24.7,13.3,3,2.0,4,0
431,1470.0,40.0,56.0,60.0,24.7,13.3,3,2.0,4,0
432,1467.0,41.0,56.0,60.0,24.7,13.3,3,2.0,4,0
433,1464.0,41.0,56.0,60.0,24.7,13.3,3,2.0,4,0
